"Distance [mm]","bx []","bz []","bx_1 []","bz_1 []","bx_2 []","bz_2 []"
0,0.00163025270608316,-0.00116901173826858,0.00137750527907281,0.000230754433214874,0.0006431961036591,0.000412425023446172
0.01,0.00164533434659597,-0.00117492199276607,0.0013819110284802,0.000229841346258027,0.000644464899454302,0.000414982176804317
0.02,0.00165751668518868,-0.0011766260679104,0.00138903888392055,0.000234441232858292,0.00064562430765628,0.000417488627551519
0.03,0.00167204502889959,-0.00118199016386241,0.0013961667393609,0.000239041119458556,0.000646946503845245,0.000420191976623795
0.04,0.0016865733726105,-0.00118735425981442,0.00140329459480124,0.00024364100605882,0.000648268700034209,0.00042289532569607
0.05,0.00170110171632141,-0.00119271835576643,0.00141042245024159,0.000248240892659085,0.000649590896223174,0.000425598674768346
0.06,0.00171563006003232,-0.00119808245171845,0.00141755030568194,0.000252840779259349,0.000650913092412139,0.000428302023840622
0.07,0.00173015840374323,-0.00120344654767046,0.00142467816112229,0.000257440665859614,0.00065209747467244,0.000431071693716217
0.08,0.00174468674745415,-0.00120881064362247,0.00143180601656263,0.000262040552459878,0.000653331359700225,0.000433781262744165
0.09,0.00175921509116506,-0.00121417473957449,0.00143893387200298,0.000266640439060142,0.000654569092508877,0.00043648792528562
0.1,0.00177400033673279,-0.00121948615878789,0.00144572991123262,0.000271328475118249,0.000655955613365213,0.000439214240656817
0.11,0.0017898395629301,-0.00122462601298753,0.0014529633707552,0.00027613510998178,0.00065711677928336,0.000441971848060385
0.12,0.0018056551000155,-0.00122978525224424,0.00146019683027778,0.000280941744845311,0.000658277945201506,0.000444729455463953
0.13,0.0018214706371009,-0.00123494449150095,0.00146733510853199,0.000285825231788634,0.00065946732102721,0.000447502955620677
0.14,0.0018372861741863,-0.00124010373075765,0.00147451140542326,0.000290658015584455,0.000660636747350099,0.000450265598738485
0.15,0.0018531017112717,-0.00124526297001436,0.00148150836689069,0.000295488411019929,0.000661806173672988,0.000453028241856292
0.16,0.0018701457836512,-0.0012520055004356,0.00148821792573987,0.000300533966191352,0.000662975599995877,0.000455790884974099
0.17,0.00188623779973632,-0.00125709230125416,0.00149492748458905,0.000305579521362775,0.000664268774106694,0.000458747106144775
0.18,0.00190232981582145,-0.00126217910207271,0.00150213868717452,0.000310927033688837,0.000665526744759536,0.000461598659191191
0.19,0.00191842183190658,-0.00126726590289127,0.00150939287103512,0.000316241707185209,0.000666784715412378,0.000464450212237607
0.2,0.00193474555824031,-0.00127282514534826,0.00151664705489573,0.000321556380681581,0.000667693564053944,0.000467309187867558
0.21,0.00195235535425413,-0.00127791555777082,0.00152390123875634,0.000326871054177954,0.000668930106387167,0.000470246070234737
0.22,0.00196996515026796,-0.00128300597019338,0.00153076180214459,0.000332304122807227,0.000670306514215624,0.00047301081283165
0.23,0.00198657034789236,-0.00128971743081265,0.00153809183588523,0.000337787736694244,0.000671454549067819,0.000475943557156302
0.24,0.00200439233432871,-0.00129471062873449,0.00154542186962587,0.00034327135058126,0.000672602583920014,0.000478876301480954
0.25,0.00202180048974927,-0.00130034234574687,0.00155275190336651,0.000348754964468276,0.000673750618772209,0.000481809045805606
0.26,0.00203920864516983,-0.00130597406275925,0.00156008193710714,0.000354238578355291,0.000674898653624404,0.000484741790130258
0.27,0.00205678977169097,-0.00131129517609523,0.00156701019198817,0.000360032262635646,0.00067608523215576,0.000487734412140026
0.28,0.00207435927267212,-0.00131665850567193,0.00157438697497382,0.000365405846039832,0.000677222752679145,0.000490673037818466
0.29,0.00209192877365327,-0.00132202183524862,0.00158212992417107,0.000371994626203512,0.00067844539457304,0.000493652167131565
0.3,0.00211139663773857,-0.00132830254870437,0.00158892674544368,0.000377121384420324,0.000679540469338643,0.000496673291645524
0.31,0.00213051639846766,-0.00133401739757047,0.00159649622973646,0.00038324504285827,0.000680635544104245,0.000499694416159483
0.32,0.00214982414562134,-0.00133934830908361,0.00160406571402923,0.000389368701296216,0.000681679255935171,0.000502768500711671
0.33,0.00216856777466068,-0.00134542815183318,0.00161163519832201,0.000395492359734162,0.00068275359819031,0.000505792167910835
0.34,0.00218852884249148,-0.00135113140798464,0.00161920468261478,0.000401616018172107,0.00068382794044545,0.000508815835109999
0.35,0.00220848991032227,-0.0013568346641361,0.00162667176001834,0.000407904650080626,0.000684902282700589,0.000511839502309163
0.36,0.00222845097815307,-0.00136253792028756,0.00163424802341542,0.000413991952229823,0.000685976624955728,0.000514863169508327
0.37,0.00224841204598387,-0.00136824117643902,0.00164157784744556,0.000420212535410903,0.000687256791099713,0.00051807741265516
0.38,0.00226837311381466,-0.00137394443259048,0.00165018249640334,0.000426785774651579,0.000688387933820487,0.000521146938955769
0.39,0.00228861975422762,-0.00137918349517415,0.00165842336930871,0.000433995626948627,0.000689386419864447,0.000524324696670449
0.4,0.00230822449916707,-0.00138535349645797,0.00166394259016357,0.000438107264746923,0.00069046057435471,0.000527399991473482
0.41,0.00232949071081539,-0.00138850831516402,0.00167183419343712,0.000445065529145983,0.000691455511478965,0.000530529831421611
0.42,0.00235202860533267,-0.00139629724487513,0.00167972579671067,0.000452023793545041,0.000692477075230597,0.000533661957493117
0.43,0.0023737893339121,-0.0014019634662016,0.00168761739998422,0.0004589820579441,0.000693456048866556,0.000536609065729086
0.44,0.00239555006249154,-0.00140762968752807,0.00169550900325776,0.000465940322343158,0.000694481890311227,0.000539817995193913
0.45,0.00241731079107097,-0.00141329590885454,0.00170340060653131,0.000472898586742217,0.000695507731755897,0.000543026924658741
0.46,0.00243907151965041,-0.00141896213018101,0.00171129220980486,0.000479856851141276,0.00069648442906731,0.00054619621305344
0.47,0.00246083224822984,-0.00142462835150747,0.00171918381307841,0.000486815115540334,0.000697533163370847,0.00054942669806479
0.48,0.00248415427909406,-0.00143126856297668,0.00172707541635195,0.000493773379939393,0.000698639694630444,0.00055266424044365
0.49,0.00250646578664371,-0.00143679382299431,0.0017349670196255,0.000500731644338452,0.000699666783757155,0.000555865238182648
0.5,0.00252877729419335,-0.00144231908301193,0.00174285862289905,0.00050768990873751,0.000700704700365656,0.000559094091894513
0.51,0.00255201139498559,-0.00144811216123679,0.0017513084485832,0.000514813926192419,0.000701724222047219,0.000562362762802643
0.52,0.00257652489494363,-0.00145391339570521,0.00175915438874724,0.00052220080935549,0.000702616492873783,0.000565637414795066
0.53,0.00260103839490166,-0.00145971463017364,0.00176722330666109,0.00052966371804577,0.000703508763700347,0.00056891206678749
0.54,0.0026255993006194,-0.00146550409445331,0.00177529222457494,0.000537126626736049,0.000704401034526911,0.000572186718779914
0.55,0.00265006775405734,-0.00147102661393488,0.00178336114248878,0.000544589535426328,0.000705293305353475,0.000575461370772337
0.56,0.00267453620749528,-0.00147654913341645,0.00179143006040263,0.000552052444116608,0.00070618557618004,0.000578736022764761
0.57,0.00269900466093322,-0.00148207165289802,0.00179949897831648,0.000559515352806887,0.000707077847006604,0.000582010674757184
0.58,0.00272347311437116,-0.00148759417237959,0.00180756789623032,0.000566978261497167,0.000707970117833168,0.000585285326749608
0.59,0.0027479415678091,-0.00149311669186116,0.00181563681414417,0.000574441170187446,0.000708862388659733,0.000588559978742032
0.6,0.00277270161187564,-0.00149851805677049,0.00182358194123014,0.000581529257915697,0.000710057028585735,0.000592411067822103
0.61,0.00280032132335078,-0.00150494124121855,0.00183217931253895,0.000591134977017676,0.000711010705093161,0.000595715772323926
0.62,0.00282713990005672,-0.00151010644399122,0.00184048958095353,0.000597235596411517,0.000711671783349657,0.000599150300685972
0.63,0.00285395847676267,-0.0015152716467639,0.00184875794658858,0.000605749874429781,0.000712628807595193,0.000602255319130441
0.64,0.00288077705346862,-0.00152043684953658,0.00185702631222362,0.000614264152448046,0.000713455562055634,0.00060589960224576
0.65,0.00290683623088795,-0.00152699825374669,0.00186529467785867,0.00062277843046631,0.000714295579565836,0.000609344879624257
0.66,0.00293430037221459,-0.00153250475106487,0.00187356304349371,0.000631292708484575,0.000715135597076038,0.000612790157002753
0.67,0.00296194733654636,-0.00153774403371914,0.00188183140912876,0.000639806986502839,0.00071597561458624,0.00061623543438125
0.68,0.00298944259925829,-0.00154311757191261,0.0018900997747638,0.000648321264521104,0.000716815632096441,0.000619680711759747
0.69,0.00301693786197022,-0.00154849111010608,0.00189836814039885,0.000656835542539368,0.000717655649606643,0.000623125989138243
0.7,0.00304598318808759,-0.00155410146316574,0.00190663650603389,0.000665349820557632,0.000718495667116845,0.00062657126651674
0.71,0.0030755972611659,-0.00155958943209642,0.00191539557495564,0.000674060438534733,0.00071919548777483,0.000630070863808248
0.72,0.00310521133424421,-0.00156507740102711,0.00192360083623593,0.000682792770333885,0.000719988440016737,0.00063361912883132
0.73,0.00313628433926999,-0.00157121691924715,0.00193190506398125,0.000691600841788817,0.000720781392258645,0.000637167393854392
0.74,0.0031651048619776,-0.00157774363922029,0.00194052521535684,0.000700647406143337,0.000721574344500553,0.000640715658877464
0.75,0.0031960393380583,-0.00158285139863902,0.00194914536673244,0.000709693970497857,0.000722357391723187,0.000644251269687961
0.76,0.003226973814139,-0.00158795915805775,0.00195776551810803,0.000718740534852377,0.000723095272006936,0.000647786888415998
0.77,0.0032579082902197,-0.00159306691747648,0.00196638566948363,0.000727787099206898,0.000723787587591207,0.000651350505905402
0.78,0.00328884276630041,-0.0015981746768952,0.00197500582085923,0.000736833663561419,0.000724501899438798,0.000654924447038267
0.79,0.00331977724238111,-0.00160328243631393,0.0019835911618018,0.00074584022484312,0.000725235322728673,0.000658568365023173
0.8,0.00335364015176964,-0.0016100204970416,0.00199224020699664,0.000755709290624465,0.000725968746018546,0.00066221228300808
0.81,0.00338401970721295,-0.00161700237623458,0.00200081040467719,0.000765415061210208,0.000726744988886956,0.000665869711560111
0.82,0.00341920779161687,-0.00161917030296532,0.00200938060235774,0.000775120831795952,0.000727400365590356,0.000669508463683494
0.83,0.00345319453337219,-0.00162471738330536,0.00201795080003829,0.000784826602381694,0.000728052766681144,0.000673143461848786
0.84,0.0034871812751275,-0.0016302644636454,0.00202652099771884,0.000794532372967438,0.000728705167771932,0.000676778460014078
0.85,0.00352116801688282,-0.00163581154398544,0.00203509119539939,0.000804238143553181,0.000729285150969677,0.00068049487415608
0.86,0.00355515475863814,-0.00164135862432548,0.00204408845851043,0.00081424977045314,0.00072989816840482,0.000684116783641316
0.87,0.00358914150039345,-0.00164690570466552,0.00205312236653315,0.000824356136749857,0.000730602948356656,0.000687756162437299
0.88,0.00362312824214877,-0.00165245278500555,0.00206236913614067,0.000834628142119234,0.000731233848605454,0.000691441558754532
0.89,0.00365711498390409,-0.00165799986534559,0.00207050849621355,0.000844777726643878,0.000731969661843607,0.000695222768391475
0.9,0.0036911017256594,-0.00166354694568563,0.00207952007659165,0.000855224247036038,0.000732518073297086,0.00069900408422522
0.91,0.00372860040069359,-0.00166854249092842,0.00208853165696975,0.0008656707674282,0.000733106736450862,0.000702775616405663
0.92,0.00376794490915065,-0.00167337975227017,0.00209754323734786,0.00087611728782036,0.000733686649341849,0.000706568053659583
0.93,0.00380728941760771,-0.00167821701361192,0.00210650825389277,0.000886756190084735,0.000734255992917759,0.000710344334375029
0.94,0.00384663392606478,-0.00168305427495368,0.00211548918157315,0.000897238893029274,0.000734825336493669,0.000714120615090476
0.95,0.00388597843452185,-0.00168789153629543,0.00212447010925354,0.000907721595973813,0.000735394680069579,0.000717896895805922
0.96,0.00392532294297891,-0.00169272879763718,0.00213324325080534,0.000918794348005297,0.000735964023645488,0.000721673176521368
0.97,0.00396466745143598,-0.00169756605897893,0.00214217108805592,0.000929372423943486,0.000736499737216951,0.000725492646794245
0.98,0.00400401195989304,-0.00170240332032068,0.00214926020070834,0.000942099874757243,0.000737048519221076,0.000729258017720436
0.99,0.00404348391371721,-0.00170630371344995,0.00216145497474028,0.000954181639913641,0.000737597301225199,0.000733023388646626
1,0.00408266256277056,-0.00171181362688493,0.00216790433852252,0.000960374981427562,0.000737994108838336,0.000736821161486813
1.01,0.00412545282780947,-0.00171563635545728,0.00217702787185288,0.000972735181945641,0.000738202522070547,0.000740612901610488
1.02,0.00416847959046218,-0.0017190966697908,0.00218615140518323,0.000985095382463721,0.000739057750998829,0.000744568801802803
1.03,0.00421150635311489,-0.00172255698412432,0.00219527493851359,0.000997455582981801,0.000739489648855874,0.00074848421519586
1.04,0.00425453311576761,-0.00172601729845784,0.00220439847184395,0.00100981578349988,0.00073985166810794,0.000752354872676816
1.05,0.00429755987842031,-0.00172947761279136,0.0022135220051743,0.00102217598401796,0.000740213687360005,0.000756225530157771
1.06,0.00434058664107303,-0.00173293792712488,0.00222264553850466,0.00103453618453604,0.000740575706612072,0.000760096187638727
1.07,0.00438361340372574,-0.0017363982414584,0.00223176907183502,0.00104689638505412,0.000740928001617535,0.000763934893577157
1.08,0.00442664016637845,-0.00173985855579191,0.00224089260516538,0.0010592565855722,0.000741346462167222,0.000767913088901875
1.09,0.00446966692903116,-0.00174331887012543,0.00225001613849574,0.00107161678609028,0.000741764922716909,0.000771891284226592
1.1,0.00451533344262274,-0.00174680538086807,0.00225913967182609,0.00108397698660836,0.000742183383266596,0.000775869479551311
1.11,0.00456344066688567,-0.00174989963706628,0.00226719392031584,0.00109637344936316,0.000742601843816283,0.000779847674876028
1.12,0.0046115478911486,-0.00175299389326449,0.00227637557747565,0.00110901193464119,0.000742888680569753,0.000783861114105778
1.13,0.0046592482324621,-0.00175753553517285,0.00228555723463546,0.00112165041991923,0.000743141658206875,0.000787889750441801
1.14,0.00470949777406432,-0.00176056686976643,0.00229463215169982,0.00113427830566385,0.000743394635843997,0.000791918386777824
1.15,0.00475974731566654,-0.00176359820436001,0.00230348756526904,0.00114704459078913,0.00074364761348112,0.000795947023113848
1.16,0.00480999685726876,-0.0017666295389536,0.00231234297883826,0.00115981087591441,0.000743900591118242,0.000799975659449871
1.17,0.00486024639887098,-0.00176966087354718,0.00232119839240747,0.00117257716103969,0.000744161383042377,0.000804022750046139
1.18,0.0049104959404732,-0.00177269220814076,0.00233005380597669,0.00118534344616497,0.000744286695020371,0.000807889055897451
1.19,0.00496074548207542,-0.00177572354273434,0.00233856055422664,0.00119827229688201,0.000744590355644001,0.000811948287204807
1.2,0.00500994784859754,-0.0017818650854061,0.00234601966662026,0.00121352752360953,0.000744723035982757,0.000816062855427455
1.21,0.00505909093532275,-0.00177979635372487,0.00235717643996636,0.00122744287413452,0.000744855716321514,0.000820177423650104
1.22,0.00511801395928966,-0.00178618327699957,0.00236622137737474,0.00123924007281373,0.00074498839666027,0.000824291991872751
1.23,0.00517317158185104,-0.00178751820732825,0.00237533336933215,0.00125348703364354,0.000745121076999027,0.000828406560095399
1.24,0.00522841473502058,-0.00178876309797472,0.00238444536128955,0.00126773399447334,0.000745270989161691,0.000832525287605774
1.25,0.00528365788819012,-0.00179000798862118,0.00239355735324695,0.00128198095530315,0.000745346174413594,0.00083705889542096
1.26,0.00533890104135966,-0.00179125287926764,0.00240266934520435,0.00129622791613296,0.000745650344559712,0.000840833918023773
1.27,0.0053941441945292,-0.0017924977699141,0.00241178133716176,0.00131047487696276,0.000745759758580989,0.000845049881718853
1.28,0.00544938734769874,-0.00179374266056057,0.00242022199281108,0.00132520068299224,0.00074555340447263,0.000848562139563253
1.29,0.00550463050086828,-0.00179498755120703,0.00242896010877305,0.00133951775038595,0.000745590908356136,0.000852794112981812
1.3,0.00555987365403783,-0.00179623244185349,0.00243769822473502,0.00135383481777966,0.000745712120407317,0.000856869649644772
1.31,0.00562121181538206,-0.00179750392175679,0.00244739586746321,0.00136855257020736,0.000745711438100824,0.000861136398644337
1.32,0.00568385760238328,-0.00179891913653662,0.0024562117421471,0.00138327032263508,0.00074571075579433,0.000865403147643901
1.33,0.0057465033893845,-0.00180033435131644,0.00246502761683099,0.00139798807506279,0.000745710073487836,0.000869669896643465
1.34,0.00580914917638572,-0.00180174956609627,0.00247384349151489,0.0014127058274905,0.000745709391181343,0.00087393664564303
1.35,0.00587179496338695,-0.00180316478087609,0.00248265936619878,0.00142742357991822,0.000745708708874849,0.000878203394642594
1.36,0.00593444075038817,-0.00180457999565592,0.00249147524088267,0.00144214133234593,0.000745708026568355,0.000882470143642158
1.37,0.00599708653738939,-0.00180599521043575,0.00250029111556657,0.00145685908477364,0.000745730052460261,0.000886315736443168
1.38,0.00607348687221893,-0.00180341233855364,0.00251025443926561,0.00147475094532954,0.000745507268245612,0.000890762444901806
1.39,0.00612221974305459,-0.00179798460994478,0.00251880548584625,0.00149022177452739,0.000745321468230774,0.000894978634013292
1.4,0.00619246138646543,-0.00179532726521618,0.00252810544567642,0.00150656925765391,0.000745135668215937,0.000899194823124778
1.41,0.0062619571917469,-0.00179391602751613,0.00253563406121203,0.00152186298776154,0.000744949868201099,0.000903411012236263
1.42,0.00633175595705252,-0.00179643579348406,0.00254496990994177,0.00153417731869269,0.000744793852477957,0.000907568088764299
1.43,0.00640126820065983,-0.0017951282233484,0.00255343832333228,0.00155138781793519,0.000744602390712888,0.000911740296104822
1.44,0.00647078044426714,-0.00179382065321274,0.00256156509776634,0.00157005038956955,0.00074441092894782,0.000915912503445345
1.45,0.00654029268787445,-0.00179251308307708,0.00257017614215133,0.00158696387481319,0.000744219467182752,0.000920084710785868
1.46,0.00660980493148175,-0.00179120551294142,0.00257878718653633,0.00160387736005683,0.000743794900030625,0.000924346708052698
1.47,0.00667931717508906,-0.00178989794280577,0.00258739823092132,0.00162079084530047,0.000744018872649211,0.000928799919716033
1.48,0.0067588518172727,-0.00177770421996237,0.00259600927530631,0.0016377043305441,0.00074371688987178,0.000933028677148275
1.49,0.00683158838670933,-0.00177496539385404,0.00260462031969131,0.00165461781578774,0.000743414907094349,0.000937257434580517
1.5,0.00690432495614596,-0.0017722265677457,0.0026132313640763,0.00167153130103138,0.000742870631814361,0.00094129412630094
1.51,0.006986100814598,-0.00176870432057503,0.0026209131371836,0.00168902597973139,0.000742656707804117,0.000945692228204205
1.52,0.00706677940658948,-0.00176515965102044,0.00262964418979091,0.00170652106373099,0.000742622434591693,0.000950177721791596
1.53,0.00714745799858096,-0.00176161498146585,0.00263868926798219,0.00172379147027703,0.000742239142425017,0.000954502591240905
1.54,0.00722813659057244,-0.00175807031191125,0.00264695098182842,0.00174140812792043,0.000741855850258341,0.000958827460690213
